Item name: Prompt

Real time: 37.975
Live time: 0
Time calibration: 5.486969E-02ns/ch

Comment: 


Chan	Data
1	1
2	0
3	1
4	1
5	0
6	1
7	1
8	2
9	1
10	0
11	1
12	0
13	1
14	0
15	0
16	1
17	0
18	1
19	0
20	0
21	2
22	0
23	2
24	2
25	1
26	1
27	1
28	1
29	2
30	2
31	0
32	1
33	0
34	0
35	0
36	2
37	0
38	3
39	0
40	0
41	0
42	0
43	0
44	0
45	0
46	0
47	2
48	0
49	1
50	0
51	0
52	1
53	1
54	2
55	0
56	3
57	1
58	2
59	1
60	0
61	1
62	1
63	1
64	0
65	1
66	1
67	1
68	1
69	0
70	0
71	2
72	1
73	0
74	1
75	2
76	0
77	0
78	2
79	1
80	1
81	0
82	0
83	1
84	1
85	2
86	2
87	0
88	0
89	0
90	1
91	0
92	0
93	0
94	0
95	0
96	0
97	0
98	0
99	1
100	1
101	0
102	2
103	0
104	0
105	0
106	1
107	1
108	0
109	1
110	1
111	1
112	0
113	0
114	0
115	0
116	1
117	1
118	0
119	0
120	1
121	2
122	0
123	2
124	1
125	0
126	1
127	0
128	2
129	0
130	0
131	1
132	0
133	1
134	0
135	0
136	2
137	1
138	4
139	1
140	0
141	1
142	1
143	0
144	1
145	1
146	1
147	1
148	1
149	0
150	1
151	1
152	2
153	2
154	1
155	0
156	1
157	0
158	1
159	0
160	0
161	0
162	1
163	0
164	1
165	1
166	0
167	1
168	0
169	2
170	0
171	0
172	1
173	3
174	0
175	2
176	0
177	0
178	1
179	0
180	0
181	2
182	4
183	0
184	0
185	0
186	0
187	1
188	0
189	2
190	0
191	3
192	2
193	1
194	1
195	0
196	1
197	0
198	0
199	0
200	2
201	1
202	0
203	0
204	0
205	0
206	0
207	0
208	0
209	0
210	1
211	0
212	1
213	1
214	1
215	0
216	0
217	1
218	1
219	3
220	0
221	0
222	0
223	0
224	0
225	1
226	0
227	1
228	0
229	0
230	0
231	3
232	1
233	1
234	0
235	2
236	0
237	0
238	1
239	2
240	0
241	0
242	1
243	0
244	0
245	0
246	2
247	0
248	1
249	0
250	0
251	0
252	0
253	1
254	1
255	0
256	0
257	2
258	1
259	1
260	0
261	0
262	1
263	0
264	1
265	3
266	1
267	0
268	0
269	0
270	1
271	2
272	0
273	0
274	1
275	0
276	0
277	0
278	1
279	1
280	1
281	1
282	0
283	2
284	0
285	0
286	0
287	0
288	1
289	0
290	0
291	0
292	2
293	1
294	0
295	1
296	2
297	0
298	2
299	0
300	0
301	0
302	1
303	0
304	0
305	0
306	0
307	1
308	2
309	1
310	1
311	0
312	2
313	0
314	2
315	1
316	1
317	2
318	0
319	0
320	0
321	0
322	0
323	0
324	2
325	0
326	0
327	0
328	0
329	0
330	1
331	0
332	1
333	0
334	1
335	0
336	0
337	2
338	4
339	0
340	3
341	1
342	1
343	3
344	0
345	0
346	1
347	0
348	2
349	0
350	0
351	0
352	0
353	1
354	0
355	1
356	0
357	1
358	0
359	0
360	1
361	1
362	0
363	1
364	2
365	1
366	1
367	1
368	1
369	1
370	0
371	1
372	0
373	0
374	2
375	0
376	2
377	2
378	4
379	7
380	8
381	8
382	8
383	10
384	16
385	14
386	14
387	29
388	33
389	42
390	58
391	75
392	97
393	126
394	170
395	244
396	343
397	454
398	677
399	867
400	1133
401	1523
402	1985
403	2419
404	3169
405	3985
406	4512
407	5496
408	6252
409	7013
410	7754
411	8585
412	9036
413	9351
414	9528
415	9826
416	10001
417	9963
418	9802
419	9814
420	9638
421	9750
422	9217
423	9064
424	8678
425	8509
426	8148
427	7909
428	7556
429	7409
430	7102
431	6908
432	6481
433	6276
434	6180
435	6080
436	5701
437	5711
438	5302
439	5194
440	5109
441	4871
442	4757
443	4702
444	4370
445	4379
446	4316
447	4265
448	3899
449	3865
450	3728
451	3719
452	3646
453	3462
454	3509
455	3400
456	3220
457	3191
458	3062
459	3009
460	2896
461	2807
462	2764
463	2610
464	2545
465	2543
466	2347
467	2361
468	2325
469	2158
470	2116
471	2144
472	1975
473	2003
474	1999
475	1900
476	1796
477	1884
478	1793
479	1635
480	1711
481	1566
482	1584
483	1528
484	1550
485	1486
486	1492
487	1458
488	1448
489	1391
490	1409
491	1255
492	1290
493	1262
494	1210
495	1180
496	1124
497	1068
498	1120
499	1065
500	1107
501	1063
502	969
503	1018
504	969
505	905
506	1001
507	885
508	845
509	804
510	829
511	859
512	814
513	804
514	782
515	787
516	732
517	732
518	741
519	750
520	666
521	658
522	598
523	680
524	621
525	587
526	591
527	592
528	593
529	549
530	598
531	541
532	539
533	536
534	446
535	523
536	449
537	483
538	484
539	469
540	435
541	446
542	405
543	408
544	385
545	441
546	364
547	371
548	393
549	358
550	318
551	376
552	362
553	338
554	344
555	331
556	322
557	316
558	309
559	304
560	257
561	292
562	290
563	267
564	281
565	249
566	239
567	273
568	264
569	239
570	256
571	218
572	212
573	216
574	233
575	226
576	218
577	223
578	217
579	203
580	190
581	215
582	195
583	197
584	202
585	208
586	171
587	178
588	159
589	183
590	174
591	168
592	146
593	144
594	141
595	138
596	137
597	155
598	153
599	161
600	165
601	139
602	149
603	127
604	131
605	143
606	126
607	133
608	131
609	96
610	121
611	110
612	103
613	118
614	114
615	109
616	113
617	103
618	112
619	105
620	92
621	98
622	106
623	77
624	86
625	85
626	82
627	84
628	87
629	80
630	93
631	77
632	91
633	88
634	88
635	77
636	84
637	83
638	83
639	83
640	91
641	77
642	87
643	75
644	78
645	81
646	70
647	74
648	72
649	67
650	68
651	61
652	73
653	60
654	74
655	74
656	61
657	58
658	65
659	57
660	55
661	62
662	56
663	61
664	50
665	71
666	58
667	53
668	60
669	49
670	52
671	67
672	57
673	45
674	49
675	43
676	36
677	36
678	49
679	51
680	49
681	36
682	56
683	48
684	53
685	37
686	34
687	51
688	35
689	36
690	52
691	45
692	38
693	52
694	34
695	48
696	31
697	35
698	49
699	42
700	41
701	49
702	36
703	44
704	46
705	34
706	31
707	35
708	36
709	32
710	30
711	31
712	41
713	43
714	32
715	36
716	37
717	30
718	40
719	31
720	34
721	43
722	32
723	36
724	35
725	36
726	30
727	31
728	34
729	34
730	41
731	26
732	29
733	31
734	36
735	32
736	30
737	40
738	28
739	31
740	32
741	26
742	24
743	26
744	32
745	29
746	32
747	27
748	26
749	27
750	18
751	25
752	28
753	19
754	24
755	22
756	24
757	23
758	27
759	30
760	21
761	28
762	23
763	24
764	19
765	25
766	24
767	20
768	27
769	25
770	28
771	28
772	18
773	18
774	24
775	26
776	27
777	19
778	22
779	22
780	27
781	27
782	18
783	15
784	15
785	22
786	22
787	17
788	22
789	21
790	20
791	17
792	17
793	25
794	18
795	18
796	11
797	21
798	26
799	19
800	9
801	29
802	14
803	27
804	24
805	20
806	25
807	23
808	13
809	37
810	17
811	26
812	22
813	18
814	19
815	22
816	21
817	9
818	19
819	20
820	16
821	20
822	16
823	20
824	8
825	21
826	12
827	13
828	19
829	13
830	26
831	11
832	20
833	17
834	21
835	17
836	18
837	15
838	14
839	19
840	19
841	9
842	18
843	22
844	17
845	9
846	13
847	16
848	8
849	16
850	15
851	17
852	18
853	18
854	19
855	14
856	15
857	15
858	14
859	11
860	12
861	6
862	14
863	12
864	13
865	7
866	14
867	17
868	16
869	12
870	15
871	9
872	10
873	9
874	10
875	14
876	13
877	9
878	18
879	13
880	13
881	22
882	9
883	15
884	12
885	13
886	9
887	16
888	10
889	13
890	12
891	11
892	10
893	15
894	12
895	12
896	10
897	10
898	8
899	14
900	7
901	11
902	13
903	11
904	12
905	23
906	11
907	11
908	7
909	11
910	16
911	9
912	8
913	11
914	11
915	15
916	14
917	10
918	10
919	11
920	9
921	10
922	14
923	8
924	12
925	13
926	12
927	16
928	18
929	14
930	10
931	6
932	12
933	8
934	17
935	18
936	15
937	17
938	6
939	11
940	12
941	13
942	18
943	18
944	10
945	9
946	14
947	13
948	12
949	16
950	14
951	9
952	13
953	14
954	18
955	7
956	14
957	5
958	10
959	9
960	12
961	9
962	7
963	7
964	15
965	20
966	9
967	13
968	16
969	12
970	10
971	16
972	10
973	7
974	7
975	11
976	10
977	14
978	8
979	9
980	5
981	14
982	14
983	7
984	8
985	8
986	7
987	6
988	9
989	6
990	19
991	9
992	16
993	9
994	10
995	13
996	6
997	9
998	6
999	15
1000	11
1001	12
1002	15
1003	5
1004	9
1005	8
1006	10
1007	2
1008	9
1009	11
1010	4
1011	7
1012	5
1013	5
1014	3
1015	10
1016	5
1017	6
1018	9
1019	4
1020	10
1021	12
1022	9
1023	9
1024	12
1025	12
1026	12
1027	9
1028	8
1029	11
1030	5
1031	5
1032	12
1033	5
1034	14
1035	9
1036	6
1037	7
1038	9
1039	10
1040	6
1041	8
1042	5
1043	7
1044	6
1045	9
1046	12
1047	9
1048	10
1049	2
1050	11
1051	15
1052	14
1053	8
1054	8
1055	5
1056	6
1057	8
1058	4
1059	8
1060	8
1061	7
1062	7
1063	9
1064	10
1065	9
1066	4
1067	4
1068	10
1069	9
1070	4
1071	5
1072	9
1073	8
1074	13
1075	8
1076	6
1077	5
1078	8
1079	11
1080	7
1081	4
1082	10
1083	3
1084	7
1085	6
1086	8
1087	7
1088	7
1089	10
1090	10
1091	8
1092	8
1093	8
1094	4
1095	8
1096	6
1097	9
1098	8
1099	6
1100	10
1101	6
1102	2
1103	7
1104	4
1105	9
1106	8
1107	7
1108	5
1109	12
1110	6
1111	10
1112	3
1113	2
1114	10
1115	11
1116	5
1117	10
1118	7
1119	5
1120	6
1121	2
1122	8
1123	8
1124	8
1125	6
1126	9
1127	7
1128	8
1129	7
1130	7
1131	8
1132	5
1133	9
1134	7
1135	6
1136	5
1137	3
1138	6
1139	6
1140	9
1141	8
1142	5
1143	6
1144	10
1145	5
1146	5
1147	7
1148	7
1149	7
1150	2
1151	11
1152	5
1153	3
1154	3
1155	5
1156	14
1157	8
1158	7
1159	6
1160	6
1161	8
1162	8
1163	4
1164	3
1165	7
1166	4
1167	6
1168	6
1169	10
1170	6
1171	6
1172	3
1173	6
1174	7
1175	5
1176	4
1177	4
1178	5
1179	5
1180	5
1181	9
1182	6
1183	8
1184	4
1185	4
1186	4
1187	9
1188	11
1189	7
1190	11
1191	6
1192	4
1193	4
1194	11
1195	8
1196	8
1197	8
1198	8
1199	7
1200	5
1201	2
1202	7
1203	4
1204	5
1205	6
1206	4
1207	6
1208	7
1209	7
1210	6
1211	9
1212	6
1213	1
1214	8
1215	3
1216	7
1217	9
1218	3
1219	2
1220	8
1221	9
1222	7
1223	3
1224	0
1225	4
1226	5
1227	6
1228	8
1229	10
1230	7
1231	3
1232	6
1233	3
1234	8
1235	3
1236	3
1237	6
1238	5
1239	5
1240	6
1241	5
1242	4
1243	11
1244	5
1245	4
1246	5
1247	6
1248	4
1249	5
1250	3
1251	4
1252	9
1253	9
1254	6
1255	3
1256	3
1257	4
1258	7
1259	2
1260	6
1261	3
1262	6
1263	6
1264	5
1265	7
1266	4
1267	9
1268	8
1269	1
1270	0
1271	4
1272	5
1273	3
1274	6
1275	6
1276	5
1277	4
1278	7
1279	5
1280	8
1281	6
1282	2
1283	3
1284	4
1285	5
1286	4
1287	5
1288	4
1289	4
1290	2
1291	5
1292	5
1293	3
1294	8
1295	2
1296	5
1297	6
1298	5
1299	5
1300	4
1301	5
1302	0
1303	2
1304	3
1305	3
1306	5
1307	4
1308	6
1309	5
1310	7
1311	4
1312	8
1313	7
1314	4
1315	4
1316	4
1317	5
1318	4
1319	8
1320	4
1321	4
1322	4
1323	6
1324	7
1325	6
1326	3
1327	4
1328	3
1329	3
1330	4
1331	3
1332	8
1333	5
1334	4
1335	5
1336	2
1337	3
1338	8
1339	5
1340	6
1341	1
1342	2
1343	2
1344	2
1345	7
1346	4
1347	5
1348	3
1349	5
1350	3
1351	7
1352	5
1353	0
1354	6
1355	6
1356	3
1357	4
1358	2
1359	4
1360	3
1361	6
1362	3
1363	3
1364	5
1365	6
1366	2
1367	3
1368	4
1369	7
1370	6
1371	3
1372	3
1373	2
1374	3
1375	2
1376	4
1377	0
1378	6
1379	5
1380	3
1381	5
1382	6
1383	3
1384	7
1385	1
1386	7
1387	1
1388	7
1389	8
1390	2
1391	4
1392	3
1393	5
1394	1
1395	3
1396	7
1397	6
1398	2
1399	2
1400	3
1401	7
1402	3
1403	3
1404	7
1405	7
1406	4
1407	4
1408	3
1409	7
1410	3
1411	6
1412	4
1413	5
1414	5
1415	6
1416	3
1417	7
1418	4
1419	4
1420	3
1421	3
1422	3
1423	3
1424	4
1425	5
1426	5
1427	3
1428	4
1429	1
1430	3
1431	1
1432	4
1433	2
1434	3
1435	4
1436	3
1437	0
1438	1
1439	5
1440	1
1441	5
1442	4
1443	1
1444	11
1445	6
1446	2
1447	3
1448	5
1449	5
1450	7
1451	3
1452	3
1453	4
1454	1
1455	3
1456	1
1457	5
1458	5
1459	2
1460	6
1461	2
1462	2
1463	4
1464	1
1465	2
1466	4
1467	4
1468	5
1469	2
1470	6
1471	5
1472	1
1473	2
1474	3
1475	4
1476	3
1477	4
1478	3
1479	8
1480	3
1481	3
1482	0
1483	6
1484	2
1485	6
1486	3
1487	3
1488	4
1489	6
1490	1
1491	1
1492	1
1493	3
1494	6
1495	3
1496	4
1497	5
1498	1
1499	7
1500	1
1501	3
1502	3
1503	5
1504	4
1505	4
1506	0
1507	2
1508	3
1509	6
1510	2
1511	2
1512	6
1513	4
1514	4
1515	3
1516	2
1517	4
1518	1
1519	1
1520	4
1521	4
1522	3
1523	3
1524	3
1525	3
1526	5
1527	3
1528	6
1529	5
1530	2
1531	2
1532	3
1533	2
1534	6
1535	2
1536	5
1537	1
1538	5
1539	5
1540	5
1541	8
1542	2
1543	3
1544	4
1545	4
1546	7
1547	5
1548	3
1549	3
1550	2
1551	2
1552	2
1553	0
1554	4
1555	3
1556	0
1557	0
1558	1
1559	3
1560	6
1561	4
1562	5
1563	3
1564	6
1565	4
1566	5
1567	3
1568	3
1569	3
1570	2
1571	1
1572	3
1573	5
1574	1
1575	2
1576	4
1577	6
1578	4
1579	2
1580	3
1581	3
1582	5
1583	6
1584	5
1585	0
1586	2
1587	4
1588	4
1589	6
1590	3
1591	2
1592	5
1593	4
1594	6
1595	6
1596	2
1597	2
1598	3
1599	4
1600	7
1601	3
1602	7
1603	2
1604	2
1605	4
1606	0
1607	2
1608	3
1609	2
1610	3
1611	3
1612	3
1613	4
1614	1
1615	7
1616	5
1617	4
1618	5
1619	1
1620	2
1621	1
1622	4
1623	2
1624	5
1625	3
1626	5
1627	3
1628	2
1629	1
1630	4
1631	4
1632	2
1633	1
1634	3
1635	1
1636	5
1637	4
1638	2
1639	1
1640	6
1641	2
1642	2
1643	3
1644	0
1645	1
1646	5
1647	5
1648	5
1649	5
1650	0
1651	0
1652	0
1653	2
1654	1
1655	2
1656	3
1657	1
1658	2
1659	1
1660	1
1661	3
1662	3
1663	1
1664	0
1665	0
1666	4
1667	4
1668	3
1669	2
1670	2
1671	5
1672	1
1673	2
1674	3
1675	1
1676	2
1677	4
1678	4
1679	3
1680	5
1681	4
1682	2
1683	3
1684	2
1685	1
1686	2
1687	2
1688	2
1689	3
1690	1
1691	6
1692	2
1693	2
1694	0
1695	4
1696	2
1697	2
1698	4
1699	2
1700	4
1701	4
1702	3
1703	1
1704	2
1705	0
1706	4
1707	4
1708	2
1709	3
1710	5
1711	4
1712	4
1713	1
1714	3
1715	2
1716	1
1717	4
1718	2
1719	3
1720	1
1721	3
1722	3
1723	5
1724	2
1725	2
1726	2
1727	2
1728	4
1729	1
1730	4
1731	3
1732	3
1733	1
1734	5
1735	2
1736	0
1737	4
1738	1
1739	3
1740	5
1741	2
1742	1
1743	3
1744	3
1745	3
1746	4
1747	5
1748	3
1749	4
1750	5
1751	2
1752	2
1753	2
1754	3
1755	3
1756	3
1757	2
1758	2
1759	5
1760	5
1761	1
1762	5
1763	3
1764	4
1765	3
1766	3
1767	1
1768	1
1769	4
1770	0
1771	1
1772	3
1773	4
1774	3
1775	1
1776	3
1777	5
1778	0
1779	2
1780	2
1781	3
1782	2
1783	3
1784	0
1785	5
1786	5
1787	2
1788	3
1789	3
1790	4
1791	1
1792	4
1793	1
1794	3
1795	1
1796	2
1797	1
1798	2
1799	4
1800	4
1801	2
1802	2
1803	1
1804	3
1805	6
1806	3
1807	1
1808	1
1809	3
1810	3
1811	2
1812	4
1813	5
1814	2
1815	4
1816	1
1817	5
1818	1
1819	3
1820	4
1821	1
1822	6
1823	0
1824	1
1825	3
1826	0
1827	2
1828	1
1829	3
1830	1
1831	2
1832	1
1833	1
1834	1
1835	1
1836	1
1837	2
1838	0
1839	3
1840	4
1841	4
1842	4
1843	1
1844	3
1845	2
1846	1
1847	3
1848	8
1849	1
1850	2
1851	3
1852	2
1853	4
1854	2
1855	3
1856	3
1857	4
1858	2
1859	4
1860	3
1861	1
1862	4
1863	3
1864	5
1865	5
1866	4
1867	4
1868	4
1869	1
1870	3
1871	3
1872	4
1873	1
1874	3
1875	2
1876	5
1877	3
1878	3
1879	7
1880	1
1881	3
1882	2
1883	3
1884	2
1885	3
1886	3
1887	4
1888	2
1889	4
1890	4
1891	0
1892	3
1893	1
1894	2
1895	0
1896	1
1897	3
1898	1
1899	3
1900	0
1901	1
1902	1
1903	2
1904	1
1905	1
1906	0
1907	1
1908	5
1909	4
1910	2
1911	3
1912	1
1913	2
1914	3
1915	2
1916	2
1917	7
1918	2
1919	4
1920	3
1921	2
1922	4
1923	3
1924	4
1925	5
1926	0
1927	4
1928	6
1929	2
1930	2
1931	3
1932	2
1933	4
1934	2
1935	3
1936	2
1937	3
1938	2
1939	1
1940	5
1941	0
1942	1
1943	4
1944	1
1945	2
1946	1
1947	1
1948	0
1949	1
1950	2
1951	3
1952	2
1953	6
1954	2
1955	4
1956	2
1957	2
1958	2
1959	2
1960	3
1961	1
1962	1
1963	1
1964	4
1965	1
1966	2
1967	1
1968	1
1969	2
1970	3
1971	3
1972	2
1973	1
1974	2
1975	5
1976	2
1977	2
1978	3
1979	6
1980	5
1981	4
1982	4
1983	1
1984	3
1985	4
1986	5
1987	1
1988	4
1989	3
1990	1
1991	2
1992	2
1993	4
1994	5
1995	2
1996	2
1997	3
1998	6
1999	1
2000	4
2001	4
2002	3
2003	4
2004	1
2005	1
2006	1
2007	3
2008	2
2009	3
2010	1
2011	8
2012	0
2013	2
2014	1
2015	2
2016	0
2017	2
2018	5
2019	3
2020	2
2021	3
2022	3
2023	3
2024	1
2025	1
2026	3
2027	5
2028	3
2029	2
2030	3
2031	4
2032	1
2033	3
2034	1
2035	2
2036	1
2037	0
2038	3
2039	4
2040	0
2041	3
2042	1
2043	0
2044	3
2045	3
2046	2
2047	4
2048	3
2049	2
2050	1
2051	3
2052	2
2053	5
2054	4
2055	3
2056	1
2057	2
2058	1
2059	1
2060	3
2061	3
2062	2
2063	3
2064	1
2065	5
2066	4
2067	2
2068	1
2069	3
2070	1
2071	1
2072	2
2073	2
2074	2
2075	3
2076	3
2077	5
2078	1
2079	5
2080	4
2081	1
2082	0
2083	0
2084	4
2085	0
2086	1
2087	3
2088	3
2089	0
2090	1
2091	3
2092	1
2093	2
2094	4
2095	1
2096	4
2097	3
2098	3
2099	0
2100	1
2101	0
2102	3
2103	1
2104	0
2105	4
2106	3
2107	5
2108	4
2109	2
2110	1
2111	1
2112	1
2113	2
2114	3
2115	4
2116	1
2117	0
2118	2
2119	1
2120	5
2121	3
2122	2
2123	2
2124	2
2125	1
2126	8
2127	5
2128	1
2129	3
2130	0
2131	2
2132	6
2133	1
2134	2
2135	3
2136	1
2137	1
2138	3
2139	1
2140	4
2141	3
2142	4
2143	3
2144	3
2145	2
2146	4
2147	3
2148	3
2149	2
2150	2
2151	4
2152	3
2153	1
2154	2
2155	3
2156	2
2157	5
2158	1
2159	1
2160	2
2161	1
2162	3
2163	0
2164	1
2165	1
2166	1
2167	1
2168	2
2169	1
2170	4
2171	1
2172	2
2173	1
2174	1
2175	4
2176	3
2177	6
2178	2
2179	1
2180	1
2181	3
2182	2
2183	2
2184	2
2185	2
2186	3
2187	3
2188	1
2189	1
2190	3
2191	2
2192	2
2193	1
2194	4
2195	2
2196	1
2197	1
2198	4
2199	1
2200	2
2201	2
2202	2
2203	3
2204	1
2205	5
2206	0
2207	1
2208	2
2209	3
2210	3
2211	2
2212	2
2213	2
2214	4
2215	0
2216	4
2217	1
2218	0
2219	0
2220	2
2221	2
2222	5
2223	4
2224	2
2225	1
2226	0
2227	1
2228	2
2229	0
2230	2
2231	1
2232	0
2233	3
2234	0
2235	3
2236	2
2237	4
2238	3
2239	2
2240	2
2241	2
2242	0
2243	4
2244	0
2245	6
2246	3
2247	2
2248	1
2249	3
2250	2
2251	3
2252	1
2253	1
2254	2
2255	4
2256	1
2257	4
2258	7
2259	3
2260	2
2261	2
2262	3
2263	0
2264	4
2265	1
2266	3
2267	1
2268	4
2269	0
2270	0
2271	2
2272	3
2273	1
2274	5
2275	4
2276	2
2277	3
2278	0
2279	4
2280	2
2281	4
2282	0
2283	1
2284	3
2285	2
2286	1
2287	1
2288	4
2289	2
2290	2
2291	3
2292	1
2293	0
2294	3
2295	0
2296	1
2297	2
2298	5
2299	2
2300	5
2301	4
2302	2
2303	2
2304	0
2305	2
2306	0
2307	1
2308	2
2309	1
2310	2
2311	1
2312	3
2313	0
2314	2
2315	3
2316	3
2317	2
2318	3
2319	5
2320	2
2321	1
2322	3
2323	0
2324	3
2325	2
2326	0
2327	1
2328	2
2329	0
2330	0
2331	1
2332	6
2333	1
2334	6
2335	0
2336	4
2337	2
2338	3
2339	2
2340	0
2341	3
2342	7
2343	0
2344	1
2345	1
2346	2
2347	2
2348	0
2349	2
2350	1
2351	3
2352	2
2353	2
2354	2
2355	0
2356	0
2357	0
2358	4
2359	4
2360	3
2361	4
2362	2
2363	0
2364	2
2365	1
2366	3
2367	3
2368	0
2369	3
2370	2
2371	4
2372	2
2373	3
2374	3
2375	2
2376	1
2377	2
2378	3
2379	1
2380	3
2381	1
2382	2
2383	1
2384	2
2385	0
2386	5
2387	1
2388	3
2389	2
2390	1
2391	1
2392	3
2393	3
2394	2
2395	1
2396	2
2397	1
2398	4
2399	7
2400	1
2401	2
2402	2
2403	2
2404	3
2405	2
2406	0
2407	1
2408	1
2409	3
2410	3
2411	2
2412	0
2413	1
2414	1
2415	4
2416	3
2417	2
2418	1
2419	3
2420	0
2421	2
2422	2
2423	1
2424	2
2425	2
2426	1
2427	2
2428	6
2429	2
2430	2
2431	0
2432	2
2433	1
2434	0
2435	1
2436	0
2437	4
2438	2
2439	2
2440	3
2441	3
2442	0
2443	1
2444	2
2445	2
2446	0
2447	3
2448	3
2449	4
2450	5
2451	3
2452	5
2453	3
2454	1
2455	2
2456	3
2457	2
2458	2
2459	1
2460	3
2461	3
2462	2
2463	2
2464	2
2465	1
2466	0
2467	1
2468	1
2469	0
2470	5
2471	1
2472	0
2473	3
2474	1
2475	2
2476	3
2477	1
2478	1
2479	5
2480	1
2481	3
2482	3
2483	1
2484	2
2485	4
2486	3
2487	3
2488	2
2489	1
2490	3
2491	0
2492	1
2493	2
2494	2
2495	5
2496	1
2497	1
2498	6
2499	2
2500	1
2501	4
2502	1
2503	2
2504	1
2505	2
2506	1
2507	5
2508	5
2509	0
2510	2
2511	3
2512	2
2513	1
2514	1
2515	1
2516	3
2517	2
2518	4
2519	4
2520	6
2521	3
2522	4
2523	3
2524	2
2525	3
2526	1
2527	2
2528	3
2529	3
2530	2
2531	2
2532	1
2533	1
2534	1
2535	2
2536	1
2537	1
2538	5
2539	1
2540	5
2541	1
2542	1
2543	1
2544	4
2545	0
2546	3
2547	4
2548	3
2549	3
2550	3
2551	2
2552	4
2553	1
2554	2
2555	3
2556	8
2557	1
2558	4
2559	1
2560	2
2561	1
2562	0
2563	4
2564	1
2565	2
2566	4
2567	2
2568	4
2569	1
2570	2
2571	1
2572	3
2573	6
2574	2
2575	3
2576	4
2577	0
2578	4
2579	1
2580	3
2581	1
2582	4
2583	4
2584	3
2585	1
2586	2
2587	1
2588	0
2589	3
2590	0
2591	4
2592	0
2593	3
2594	3
2595	5
2596	3
2597	2
2598	3
2599	6
2600	0
2601	1
2602	3
2603	2
2604	4
2605	3
2606	5
2607	0
2608	3
2609	5
2610	1
2611	2
2612	5
2613	2
2614	2
2615	4
2616	3
2617	0
2618	1
2619	6
2620	2
2621	5
2622	3
2623	2
2624	3
2625	4
2626	3
2627	4
2628	6
2629	5
2630	1
2631	3
2632	4
2633	4
2634	0
2635	3
2636	4
2637	0
2638	3
2639	3
2640	1
2641	4
2642	4
2643	1
2644	3
2645	3
2646	3
2647	3
2648	2
2649	3
2650	3
2651	3
2652	3
2653	3
2654	2
2655	0
2656	6
2657	1
2658	2
2659	3
2660	2
2661	2
2662	5
2663	4
2664	3
2665	3
2666	1
2667	0
2668	0
2669	3
2670	1
2671	3
2672	2
2673	1
2674	2
2675	3
2676	3
2677	5
2678	2
2679	2
2680	2
2681	5
2682	1
2683	2
2684	4
2685	4
2686	3
2687	4
2688	0
2689	2
2690	2
2691	1
2692	3
2693	2
2694	1
2695	1
2696	2
2697	2
2698	4
2699	0
2700	2
2701	2
2702	1
2703	6
2704	2
2705	5
2706	4
2707	4
2708	5
2709	6
2710	4
2711	5
2712	0
2713	3
2714	2
2715	5
2716	1
2717	1
2718	2
2719	4
2720	3
2721	3
2722	4
2723	1
2724	2
2725	4
2726	3
2727	0
2728	5
2729	3
2730	2
2731	1
2732	2
2733	4
2734	4
2735	2
2736	4
2737	5
2738	4
2739	2
2740	2
2741	5
2742	1
2743	2
2744	3
2745	7
2746	2
2747	6
2748	3
2749	1
2750	11
2751	6
2752	6
2753	3
2754	3
2755	1
2756	2
2757	1
2758	1
2759	4
2760	4
2761	3
2762	5
2763	1
2764	2
2765	4
2766	4
2767	6
2768	2
2769	1
2770	3
2771	1
2772	5
2773	4
2774	5
2775	2
2776	4
2777	4
2778	3
2779	1
2780	2
2781	0
2782	6
2783	5
2784	0
2785	2
2786	4
2787	5
2788	7
2789	2
2790	5
2791	3
2792	5
2793	4
2794	5
2795	6
2796	2
2797	5
2798	3
2799	1
2800	2
2801	3
2802	0
2803	11
2804	4
2805	2
2806	4
2807	4
2808	4
2809	6
2810	4
2811	5
2812	4
2813	3
2814	2
2815	5
2816	5
2817	4
2818	2
2819	5
2820	2
2821	1
2822	5
2823	2
2824	3
2825	3
2826	2
2827	3
2828	3
2829	1
2830	5
2831	7
2832	5
2833	3
2834	7
2835	3
2836	6
2837	5
2838	6
2839	2
2840	3
2841	3
2842	4
2843	0
2844	1
2845	5
2846	5
2847	7
2848	4
2849	6
2850	1
2851	9
2852	0
2853	4
2854	3
2855	4
2856	3
2857	3
2858	11
2859	2
2860	5
2861	4
2862	4
2863	9
2864	7
2865	3
2866	5
2867	2
2868	5
2869	4
2870	7
2871	5
2872	3
2873	9
2874	3
2875	8
2876	3
2877	7
2878	5
2879	7
2880	4
2881	5
2882	5
2883	3
2884	3
2885	8
2886	6
2887	6
2888	2
2889	4
2890	10
2891	5
2892	9
2893	5
2894	10
2895	4
2896	6
2897	6
2898	9
2899	6
2900	8
2901	6
2902	6
2903	9
2904	5
2905	5
2906	11
2907	4
2908	5
2909	3
2910	6
2911	9
2912	8
2913	3
2914	8
2915	7
2916	8
2917	12
2918	6
2919	8
2920	4
2921	9
2922	9
2923	9
2924	6
2925	5
2926	3
2927	8
2928	7
2929	8
2930	10
2931	5
2932	6
2933	4
2934	7
2935	7
2936	10
2937	6
2938	7
2939	5
2940	5
2941	7
2942	4
2943	7
2944	14
2945	9
2946	6
2947	6
2948	9
2949	6
2950	4
2951	9
2952	4
2953	5
2954	8
2955	4
2956	6
2957	6
2958	5
2959	11
2960	7
2961	9
2962	12
2963	6
2964	6
2965	5
2966	11
2967	5
2968	9
2969	7
2970	8
2971	12
2972	7
2973	10
2974	7
2975	2
2976	11
2977	9
2978	9
2979	7
2980	6
2981	5
2982	10
2983	9
2984	11
2985	10
2986	9
2987	8
2988	13
2989	6
2990	7
2991	9
2992	4
2993	6
2994	5
2995	9
2996	7
2997	4
2998	8
2999	6
3000	7
3001	6
3002	13
3003	11
3004	9
3005	9
3006	13
3007	11
3008	5
3009	8
3010	4
3011	13
3012	11
3013	6
3014	16
3015	1
3016	11
3017	6
3018	7
3019	10
3020	11
3021	8
3022	7
3023	9
3024	6
3025	7
3026	10
3027	7
3028	11
3029	6
3030	4
3031	4
3032	8
3033	5
3034	6
3035	9
3036	4
3037	3
3038	5
3039	4
3040	4
3041	2
3042	3
3043	5
3044	7
3045	5
3046	8
3047	7
3048	5
3049	5
3050	4
3051	2
3052	5
3053	8
3054	6
3055	6
3056	5
3057	5
3058	5
3059	4
3060	3
3061	3
3062	6
3063	4
3064	5
3065	5
3066	5
3067	5
3068	5
3069	2
3070	6
3071	7
3072	3
3073	2
3074	4
3075	6
3076	4
3077	6
3078	8
3079	6
3080	5
3081	6
3082	3
3083	4
3084	5
3085	4
3086	3
3087	4
3088	6
3089	4
3090	3
3091	2
3092	4
3093	5
3094	3
3095	8
3096	7
3097	1
3098	9
3099	7
3100	5
3101	3
3102	2
3103	0
3104	2
3105	6
3106	8
3107	3
3108	8
3109	5
3110	3
3111	7
3112	4
3113	2
3114	2
3115	2
3116	4
3117	3
3118	2
3119	5
3120	3
3121	3
3122	5
3123	4
3124	2
3125	2
3126	2
3127	2
3128	3
3129	4
3130	3
3131	4
3132	4
3133	3
3134	4
3135	6
3136	5
3137	2
3138	2
3139	4
3140	4
3141	4
3142	5
3143	4
3144	3
3145	3
3146	5
3147	3
3148	5
3149	4
3150	2
3151	5
3152	3
3153	1
3154	4
3155	2
3156	1
3157	2
3158	1
3159	3
3160	6
3161	2
3162	1
3163	1
3164	5
3165	1
3166	6
3167	0
3168	3
3169	0
3170	3
3171	4
3172	2
3173	2
3174	3
3175	4
3176	3
3177	2
3178	3
3179	3
3180	6
3181	3
3182	1
3183	2
3184	1
3185	1
3186	0
3187	5
3188	1
3189	2
3190	0
3191	5
3192	5
3193	2
3194	1
3195	5
3196	1
3197	3
3198	1
3199	0
3200	4
3201	3
3202	1
3203	1
3204	3
3205	1
3206	3
3207	0
3208	3
3209	3
3210	2
3211	1
3212	2
3213	5
3214	3
3215	1
3216	1
3217	3
3218	2
3219	3
3220	1
3221	1
3222	2
3223	4
3224	1
3225	2
3226	4
3227	0
3228	0
3229	1
3230	2
3231	3
3232	1
3233	2
3234	1
3235	2
3236	3
3237	6
3238	0
3239	2
3240	0
3241	6
3242	1
3243	1
3244	4
3245	1
3246	1
3247	1
3248	5
3249	6
3250	1
3251	2
3252	1
3253	2
3254	1
3255	2
3256	3
3257	1
3258	3
3259	2
3260	3
3261	1
3262	4
3263	4
3264	3
3265	2
3266	3
3267	3
3268	3
3269	2
3270	2
3271	1
3272	1
3273	0
3274	2
3275	1
3276	0
3277	4
3278	1
3279	2
3280	1
3281	0
3282	3
3283	2
3284	4
3285	0
3286	3
3287	3
3288	0
3289	3
3290	1
3291	0
3292	4
3293	3
3294	4
3295	2
3296	7
3297	2
3298	0
3299	2
3300	2
3301	1
3302	1
3303	1
3304	0
3305	3
3306	5
3307	3
3308	2
3309	1
3310	2
3311	2
3312	3
3313	0
3314	1
3315	2
3316	2
3317	2
3318	1
3319	0
3320	1
3321	0
3322	1
3323	1
3324	0
3325	2
3326	1
3327	1
3328	2
3329	4
3330	3
3331	1
3332	4
3333	1
3334	3
3335	2
3336	1
3337	3
3338	1
3339	2
3340	2
3341	1
3342	2
3343	0
3344	1
3345	2
3346	2
3347	2
3348	2
3349	1
3350	2
3351	1
3352	1
3353	0
3354	0
3355	0
3356	1
3357	4
3358	1
3359	3
3360	1
3361	2
3362	2
3363	3
3364	0
3365	0
3366	3
3367	1
3368	2
3369	2
3370	1
3371	2
3372	3
3373	2
3374	2
3375	5
3376	1
3377	0
3378	0
3379	0
3380	1
3381	0
3382	1
3383	1
3384	1
3385	1
3386	6
3387	2
3388	1
3389	2
3390	0
3391	2
3392	0
3393	0
3394	2
3395	1
3396	0
3397	3
3398	1
3399	0
3400	0
3401	3
3402	2
3403	1
3404	3
3405	1
3406	2
3407	1
3408	0
3409	2
3410	2
3411	2
3412	0
3413	2
3414	1
3415	1
3416	7
3417	1
3418	3
3419	1
3420	1
3421	3
3422	0
3423	1
3424	6
3425	1
3426	2
3427	2
3428	1
3429	2
3430	2
3431	1
3432	1
3433	2
3434	1
3435	0
3436	0
3437	0
3438	2
3439	1
3440	0
3441	0
3442	2
3443	2
3444	1
3445	0
3446	0
3447	5
3448	0
3449	5
3450	1
3451	0
3452	1
3453	1
3454	0
3455	2
3456	0
3457	2
3458	1
3459	4
3460	0
3461	3
3462	1
3463	0
3464	1
3465	0
3466	1
3467	2
3468	2
3469	3
3470	1
3471	3
3472	3
3473	5
3474	0
3475	1
3476	2
3477	2
3478	2
3479	0
3480	1
3481	0
3482	1
3483	2
3484	2
3485	2
3486	1
3487	1
3488	2
3489	1
3490	2
3491	2
3492	1
3493	0
3494	2
3495	2
3496	1
3497	1
3498	4
3499	0
3500	4
3501	3
3502	0
3503	0
3504	3
3505	4
3506	1
3507	1
3508	1
3509	0
3510	1
3511	1
3512	0
3513	4
3514	1
3515	0
3516	2
3517	0
3518	1
3519	4
3520	1
3521	3
3522	3
3523	2
3524	2
3525	3
3526	1
3527	0
3528	2
3529	2
3530	3
3531	2
3532	1
3533	0
3534	2
3535	0
3536	0
3537	1
3538	3
3539	0
3540	2
3541	1
3542	2
3543	1
3544	0
3545	1
3546	1
3547	1
3548	1
3549	1
3550	3
3551	2
3552	1
3553	1
3554	1
3555	1
3556	0
3557	1
3558	3
3559	0
3560	3
3561	5
3562	1
3563	2
3564	0
3565	2
3566	2
3567	2
3568	0
3569	0
3570	0
3571	1
3572	0
3573	2
3574	1
3575	2
3576	0
3577	0
3578	0
3579	0
3580	0
3581	1
3582	2
3583	0
3584	2
3585	0
3586	2
3587	3
3588	2
3589	1
3590	2
3591	0
3592	0
3593	0
3594	2
3595	0
3596	0
3597	2
3598	2
3599	2
3600	3
3601	2
3602	3
3603	1
3604	2
3605	0
3606	2
3607	2
3608	1
3609	1
3610	2
3611	0
3612	1
3613	2
3614	2
3615	1
3616	1
3617	2
3618	1
3619	2
3620	0
3621	1
3622	1
3623	0
3624	0
3625	0
3626	0
3627	1
3628	2
3629	1
3630	2
3631	2
3632	0
3633	1
3634	1
3635	1
3636	0
3637	2
3638	1
3639	1
3640	3
3641	3
3642	1
3643	1
3644	0
3645	1
3646	2
3647	1
3648	1
3649	3
3650	1
3651	2
3652	1
3653	0
3654	2
3655	2
3656	0
3657	1
3658	0
3659	2
3660	0
3661	0
3662	3
3663	0
3664	0
3665	2
3666	0
3667	2
3668	2
3669	0
3670	1
3671	2
3672	1
3673	1
3674	2
3675	1
3676	0
3677	2
3678	1
3679	1
3680	2
3681	0
3682	1
3683	1
3684	0
3685	2
3686	5
3687	2
3688	4
3689	2
3690	1
3691	0
3692	0
3693	0
3694	4
3695	1
3696	0
3697	2
3698	3
3699	1
3700	0
3701	1
3702	0
3703	0
3704	3
3705	1
3706	0
3707	0
3708	0
3709	0
3710	3
3711	4
3712	1
3713	1
3714	3
3715	0
3716	4
3717	2
3718	3
3719	2
3720	1
3721	0
3722	1
3723	2
3724	4
3725	2
3726	0
3727	1
3728	3
3729	2
3730	0
3731	2
3732	2
3733	1
3734	6
3735	4
3736	0
3737	0
3738	0
3739	0
3740	1
3741	2
3742	2
3743	0
3744	1
3745	1
3746	1
3747	2
3748	3
3749	0
3750	1
3751	0
3752	1
3753	0
3754	2
3755	0
3756	1
3757	2
3758	3
3759	1
3760	2
3761	2
3762	3
3763	1
3764	0
3765	0
3766	2
3767	0
3768	3
3769	1
3770	2
3771	1
3772	3
3773	0
3774	2
3775	1
3776	1
3777	1
3778	1
3779	2
3780	3
3781	2
3782	2
3783	1
3784	3
3785	4
3786	2
3787	1
3788	0
3789	1
3790	1
3791	3
3792	0
3793	1
3794	2
3795	1
3796	2
3797	1
3798	1
3799	2
3800	2
3801	3
3802	0
3803	0
3804	4
3805	0
3806	1
3807	0
3808	0
3809	0
3810	0
3811	0
3812	1
3813	0
3814	1
3815	0
3816	2
3817	4
3818	1
3819	3
3820	1
3821	1
3822	2
3823	2
3824	2
3825	1
3826	2
3827	2
3828	1
3829	1
3830	2
3831	1
3832	1
3833	3
3834	3
3835	1
3836	1
3837	2
3838	2
3839	1
3840	1
3841	1
3842	0
3843	0
3844	1
3845	1
3846	2
3847	2
3848	1
3849	1
3850	1
3851	2
3852	1
3853	2
3854	1
3855	1
3856	0
3857	2
3858	2
3859	0
3860	2
3861	3
3862	2
3863	2
3864	1
3865	4
3866	0
3867	0
3868	2
3869	1
3870	3
3871	0
3872	0
3873	2
3874	0
3875	1
3876	1
3877	1
3878	0
3879	0
3880	2
3881	0
3882	1
3883	1
3884	0
3885	0
3886	1
3887	2
3888	2
3889	3
3890	2
3891	3
3892	0
3893	0
3894	0
3895	0
3896	4
3897	2
3898	0
3899	2
3900	1
3901	1
3902	2
3903	2
3904	0
3905	1
3906	1
3907	6
3908	0
3909	1
3910	2
3911	2
3912	1
3913	1
3914	2
3915	0
3916	3
3917	2
3918	0
3919	1
3920	2
3921	1
3922	2
3923	0
3924	1
3925	0
3926	2
3927	0
3928	2
3929	2
3930	0
3931	2
3932	1
3933	3
3934	3
3935	1
3936	0
3937	1
3938	1
3939	1
3940	1
3941	2
3942	1
3943	0
3944	0
3945	1
3946	1
3947	3
3948	0
3949	2
3950	1
3951	1
3952	1
3953	1
3954	1
3955	1
3956	1
3957	5
3958	1
3959	0
3960	0
3961	2
3962	2
3963	2
3964	0
3965	1
3966	2
3967	1
3968	1
3969	1
3970	1
3971	0
3972	2
3973	3
3974	1
3975	0
3976	4
3977	3
3978	1
3979	0
3980	3
3981	1
3982	1
3983	1
3984	3
3985	1
3986	0
3987	1
3988	0
3989	1
3990	0
3991	0
3992	1
3993	0
3994	0
3995	0
3996	1
3997	1
3998	0
3999	1
4000	1
4001	1
4002	1
4003	2
4004	1
4005	0
4006	1
4007	1
4008	2
4009	0
4010	1
4011	1
4012	0
4013	0
4014	0
4015	1
4016	0
4017	4
4018	1
4019	1
4020	1
4021	1
4022	2
4023	1
4024	1
4025	2
4026	0
4027	2
4028	2
4029	0
4030	1
4031	2
4032	0
4033	1
4034	0
4035	1
4036	0
4037	1
4038	1
4039	0
4040	1
4041	2
4042	3
4043	0
4044	2
4045	1
4046	1
4047	2
4048	0
4049	1
4050	0
4051	0
4052	2
4053	2
4054	1
4055	1
4056	0
4057	1
4058	2
4059	2
4060	1
4061	3
4062	2
4063	5
4064	1
4065	2
4066	2
4067	0
4068	0
4069	1
4070	1
4071	4
4072	0
4073	2
4074	3
4075	4
4076	0
4077	1
4078	1
4079	0
4080	1
4081	3
4082	0
4083	4
4084	3
4085	1
4086	1
4087	1
4088	2
4089	0
4090	0
4091	0
4092	3
4093	1
4094	3
4095	2
4096	0
